r(km) M(Msun) nb(fm^-3) Ye Ymu Yp Yn mu_n(MeV) mu_p(MeV) mu_e(MeV) mu_mu(MeV) P(dyn cm^-2)
4.5726037521E-03 1.5634671963E-10 4.2952594629E-01 7.9203415020E-02 4.7853922728E-02 0.127057 0.872943 2.2629259490E+02 2.9779950203E+01 1.9780594473E+02 9.2147574873E+01 1.0447199848E+35
1.3717811256E-02 4.2213592573E-09 4.2952562663E-01 7.9203353829E-02 4.7853856780E-02 0.127057 0.872943 2.2629224161E+02 2.9779696927E+01 1.9780584472E+02 9.2147474863E+01 1.0447176319E+35
2.5748496837E-02 2.7915978520E-08 4.2952472063E-01 7.9203180397E-02 4.7853669866E-02 0.127057 0.872943 2.2629124031E+02 2.9778979080E+01 1.9780556126E+02 9.2147191409E+01 1.0447109632E+35
4.1437160690E-02 1.1634983729E-07 4.2952270965E-01 7.9202795442E-02 4.7853254986E-02 0.127056 0.872944 2.2628901779E+02 2.9777385729E+01 1.9780493210E+02 9.2146562244E+01 1.0446961612E+35
6.1145292659E-02 3.7383693434E-07 4.2951885268E-01 7.9202057120E-02 4.7852459269E-02 0.127055 0.872945 2.2628475514E+02 2.9774329782E+01 1.9780372539E+02 9.2145355536E+01 1.0446677721E+35
8.5072391376E-02 1.0068259303E-06 4.2951217830E-01 7.9200779489E-02 4.7851082315E-02 0.127052 0.872948 2.2627737881E+02 2.9769041628E+01 1.9780163722E+02 9.2143267365E+01 1.0446186466E+35
1.1336716451E-01 2.3825545580E-06 4.2950146675E-01 7.9198729082E-02 4.7848872501E-02 0.127048 0.872952 2.2626554093E+02 2.9760554994E+01 1.9779828597E+02 9.2139916113E+01 1.0445398091E+35
1.4616458150E-01 5.1061800198E-06 4.2948522821E-01 7.9195620776E-02 4.7845522521E-02 0.127041 0.872959 2.2624759536E+02 2.9747689861E+01 1.9779320553E+02 9.2134835677E+01 1.0444202994E+35
1.8359524337E-01 1.0118998645E-05 4.2946168082E-01 7.9191113614E-02 4.7840664883E-02 0.127032 0.872968 2.2622157367E+02 2.9729035247E+01 1.9778583846E+02 9.2127468602E+01 1.0442470138E+35
2.2578689775E-01 1.8820298057E-05 4.2942872938E-01 7.9184806777E-02 4.7833867542E-02 0.127019 0.872981 2.2618516184E+02 2.9702932610E+01 1.9777552926E+02 9.2117159409E+01 1.0440045521E+35
2.7286433331E-01 3.3215391571E-05 4.2938394452E-01 7.9176235679E-02 4.7824629683E-02 0.127001 0.872999 2.2613567778E+02 2.9667459851E+01 1.9776151796E+02 9.2103148104E+01 1.0436750718E+35
3.2494914640E-01 5.6092376775E-05 4.2932454239E-01 7.9164868193E-02 4.7812377620E-02 0.126977 0.873023 2.2607004955E+02 2.9620415897E+01 1.9774293369E+02 9.2084563836E+01 1.0432381481E+35
3.8215960670E-01 9.1230103410E-05 4.2924736469E-01 7.9150100995E-02 4.7796460812E-02 0.126947 0.873053 2.2598479437E+02 2.9559305878E+01 1.9771878852E+02 9.2060418671E+01 1.0426706407E+35
4.4461059992E-01 1.4363972489E-04 4.2914885910E-01 7.9131256052E-02 4.7776148026E-02 0.126907 0.873093 2.2587599834E+02 2.9481327011E+01 1.9768797136E+02 9.2029601512E+01 1.0419465697E+35
5.1241360612E-01 2.1984203867E-04 4.2902506016E-01 7.9107577273E-02 4.7750623641E-02 0.126858 0.873142 2.2573929730E+02 2.9383355321E+01 1.9764924201E+02 9.1990872157E+01 1.0410370014E+35
5.8567668671E-01 3.2818258359E-04 4.2887157062E-01 7.9078227361E-02 4.7718984157E-02 0.126797 0.873203 2.2556985873E+02 2.9261933371E+01 1.9760122539E+02 9.1942855536E+01 1.0399099458E+35
6.6450446553E-01 4.7918614612E-04 4.2868354337E-01 7.9042284905E-02 4.7680234916E-02 0.126723 0.873277 2.2536236517E+02 2.9113259212E+01 1.9754240599E+02 9.1884036141E+01 1.0385302700E+35
7.4899809670E-01 6.8595191872E-04 4.2845566396E-01 7.8998741745E-02 4.7633287087E-02 0.126632 0.873368 2.2511099927E+02 2.8933176776E+01 1.9747112252E+02 9.1812752670E+01 1.0368596288E+35
8.3925521619E-01 9.6459004098E-04 4.2818213386E-01 7.8946500679E-02 4.7576954962E-02 0.126523 0.873477 2.2480943075E+02 2.8717167981E+01 1.9738556280E+02 9.1727192946E+01 1.0348564162E+35
9.3536987660E-01 1.3346996254E-03 4.2785665447E-01 7.8884373548E-02 4.7509953602E-02 0.126394 0.873606 2.2445080576E+02 2.8460346836E+01 1.9728375896E+02 9.1625389103E+01 1.0324757421E+35
1.0374324664E+00 1.8198876141E-03 4.2747241204E-01 7.8811079776E-02 4.7430896904E-02 0.126242 0.873758 2.2402773882E+02 2.8157455884E+01 1.9716358297E+02 9.1505213114E+01 1.0296694371E+35
1.1455296160E+00 2.4483269232E-03 4.2702206346E-01 7.8725245430E-02 4.7338296125E-02 0.126064 0.873936 2.2353230782E+02 2.7802865330E+01 1.9702274252E+02 9.1364372669E+01 1.0263860907E+35
1.2597440948E+00 3.2533513059E-03 4.2649772307E-01 7.8625402865E-02 4.7230558953E-02 0.125856 0.874144 2.2295605252E+02 2.7390575239E+01 1.9685877731E+02 9.1200407462E+01 1.0225711262E+35
1.3801547036E+00 4.2740831984E-03 4.2589095051E-01 7.8509991049E-02 4.7105989163E-02 0.125616 0.874384 2.2228997693E+02 2.6914221219E+01 1.9666905575E+02 9.1010685893E+01 1.0181669187E+35
1.5068361699E+00 5.5560895217E-03 4.2519273955E-01 7.8377356633E-02 4.6962786946E-02 0.12534 0.87466 2.2152455608E+02 2.6367084015E+01 1.9645077210E+02 9.0792402244E+01 1.0131129590E+35
1.6398590517E+00 7.1520590094E-03 4.2439350792E-01 7.8225755871E-02 4.6799049957E-02 0.125025 0.874975 2.2064974759E+02 2.5742103450E+01 1.9620094417E+02 9.0542574321E+01 1.0073460703E+35
1.7792896624E+00 9.1224931410E-03 4.2348308792E-01 7.8053357456E-02 4.6612775158E-02 0.124666 0.875334 2.1965500857E+02 2.5031897168E+01 1.9591641144E+02 9.0258041585E+01 1.0008006800E+35
1.9251900258E+00 1.1536401236E-02 4.2245071778E-01 7.7858246384E-02 4.6401861501E-02 0.12426 0.87574 2.1852931818E+02 2.4228784614E+01 1.9559383360E+02 8.9935463750E+01 9.9340915275E+34
2.0776178768E+00 1.4471988754E-02 4.2128503316E-01 7.7638428910E-02 4.6164113498E-02 0.123803 0.876197 2.1726120631E+02 2.3324816665E+01 1.9522968967E+02 8.9571319821E+01 9.8510218748E+34
2.2366267245E+00 1.8017326429E-02 4.1997405849E-01 7.7391838677E-02 4.5897245695E-02 0.123289 0.876711 2.1583878860E+02 2.2311811298E+01 1.9482027733E+02 8.9161907480E+01 9.7580928130E+34
2.4022659984E+00 2.2270986661E-02 4.1850519739E-01 7.7116344092E-02 4.5598888071E-02 0.122715 0.877285 2.1424980817E+02 2.1181395623E+01 1.9436171258E+02 8.8703342726E+01 9.6545926203E+34
2.5745813033E+00 2.7342632675E-02 4.1686522112E-01 7.6809756998E-02 4.5266592304E-02 0.122076 0.877924 2.1248168388E+02 1.9925054503E+01 1.9384992941E+02 8.8191559557E+01 9.5398088973E+34
2.7536148134E+00 3.3353545583E-02 4.1504025370E-01 7.6469842659E-02 4.4897838850E-02 0.121368 0.878632 2.1052156517E+02 1.8534185897E+01 1.9328067931E+02 8.7622309457E+01 9.4130352590E+34
2.9394058442E+00 4.0437074748E-02 4.1301575196E-01 7.6094331064E-02 4.4490044684E-02 0.120584 0.879416 2.0835639300E+02 1.7000162892E+01 1.9264953014E+02 8.6991160291E+01 9.2735786650E+34
3.1319916503E+00 4.8738998113E-02 4.1077647800E-01 7.5680929494E-02 4.4040571490E-02 0.119722 0.880278 2.0597296608E+02 1.5314402173E+01 1.9195186394E+02 8.6293494090E+01 9.1207673303E+34
3.3314085101E+00 5.8417781667E-02 4.0830646083E-01 7.5227336249E-02 4.3546733959E-02 0.118774 0.881226 2.0335801125E+02 1.3468438430E+01 1.9118287285E+02 8.5524502997E+01 8.9539591232E+34
3.5376931768E+00 6.9644731523E-02 4.0558894285E-01 7.4731255320E-02 4.3005807724E-02 0.117737 0.882263 2.0049825600E+02 1.1454003812E+01 1.9033755222E+02 8.4679182368E+01 8.7725503231E+34
3.7508847990E+00 8.2604038756E-02 4.0260630535E-01 7.4190411709E-02 4.2415036220E-02 0.116605 0.883395 1.9738050052E+02 9.2631110776E+00 1.8941068947E+02 8.3752319619E+01 8.5759845672E+34
3.9710274542E+00 9.7492727176E-02 3.9933996490E-01 7.3602566898E-02 4.1771635492E-02 0.115374 0.884626 1.9399168511E+02 6.8881384097E+00 1.8839684674E+02 8.2738476884E+01 8.3637617600E+34
4.1981734884E+00 1.1452052909E-01 3.9577022995E-01 7.2965533730E-02 4.1072795502E-02 0.114038 0.885962 1.9031894747E+02 4.3219129475E+00 1.8729033455E+02 8.1631964701E+01 8.1354466481E+34
4.4323879402E+00 1.3390973617E-01 3.9187610197E-01 7.2277189587E-02 4.0315675907E-02 0.112593 0.887407 1.8634966138E+02 1.5577887839E+00 1.8608517263E+02 8.0426802780E+01 7.8906766701E+34
4.6737544531E+00 1.5589510590E-01 3.8763499933E-01 7.1535486188E-02 3.9497393262E-02 0.111033 0.888967 1.8207144511E+02 0.0000000000E+00 1.8477503191E+02 7.9116662058E+01 7.6291685518E+34
4.9223832830E+00 1.8072395586E-01 3.8302237136E-01 7.0738453401E-02 3.8614995168E-02 0.109353 0.890647 1.7747212137E+02 0.0000000000E+00 1.8335314922E+02 7.7694779365E+01 7.3507229073E+34
5.1784223449E+00 2.0865666133E-01 3.7801115368E-01 6.9884192993E-02 3.7665414434E-02 0.10755 0.89245 1.7253960198E+02 0.0000000000E+00 1.8181220125E+02 7.6153831394E+01 7.0552257721E+34
5.4420728129E+00 2.3996791141E-01 3.7257098779E-01 6.8970855679E-02 3.6645392331E-02 0.105616 0.894384 1.6726165396E+02 0.0000000000E+00 1.8014411666E+02 7.4485746807E+01 6.7426454081E+34
5.7136118185E+00 2.7494932572E-01 3.6666707935E-01 6.7996590327E-02 3.5551352946E-02 0.103548 0.896452 1.6162547662E+02 0.0000000000E+00 1.7833979145E+02 7.2681421595E+01 6.4130216793E+34
5.9934267249E+00 3.1391449499E-01 3.6025847960E-01 6.6959445616E-02 3.4379197617E-02 0.101339 0.898661 1.5561696696E+02 0.0000000000E+00 1.7638864722E+02 7.0730277371E+01 6.0664432858E+34
6.2820693350E+00 3.5720843120E-01 3.5329539814E-01 6.5857187435E-02 3.3123962854E-02 0.0989812 0.901019 1.4921944807E+02 0.0000000000E+00 1.7427792221E+02 6.8619552355E+01 5.7030040494E+34
6.5803467938E+00 4.0522540819E-01 3.4571478152E-01 6.4686958421E-02 3.1779230672E-02 0.0964662 0.903534 1.4241141226E+02 0.0000000000E+00 1.7199147861E+02 6.6333108761E+01 5.3227204055E+34
6.8894860074E+00 4.5844393793E-01 3.3743251883E-01 6.3444618189E-02 3.0336052662E-02 0.0937807 0.906219 1.3516230167E+02 0.0000000000E+00 1.6950766213E+02 6.3849292279E+01 4.9253703258E+34
7.2034103759E+00 5.1597961190E-01 3.2856212237E-01 6.2156709601E-02 2.8820344528E-02 0.0909771 0.909023 1.2761961315E+02 0.0000000000E+00 1.6686451617E+02 6.1206146319E+01 4.5205367923E+34
7.5139474959E+00 5.7621435654E-01 3.1931056609E-01 6.0861082411E-02 2.7272034624E-02 0.0881331 0.911867 1.1999865212E+02 0.0000000000E+00 1.6412694238E+02 5.8468572531E+01 4.1208299128E+34
7.8204473052E+00 6.3872203626E-01 3.0968856423E-01 5.9565563569E-02 2.5696083956E-02 0.0852616 0.914738 1.1234062913E+02 0.0000000000E+00 1.6130052240E+02 5.5642152551E+01 3.7291305073E+34
8.1222257639E+00 7.0301509862E-01 2.9970716413E-01 5.8277719784E-02 2.4096886091E-02 0.0823746 0.917625 1.0468683348E+02 0.0000000000E+00 1.5839043028E+02 5.2732060424E+01 3.3482230011E+34
8.4185235548E+00 7.6854073131E-01 2.8937875407E-01 5.7004746758E-02 2.2478214508E-02 0.079483 0.920517 9.7079068925E+01 0.0000000000E+00 1.5540143411E+02 4.9743064254E+01 2.9808002192E+34
8.7975116502E+00 8.5533952656E-01 2.7532573335E-01 5.5368046704E-02 2.0329864602E-02 0.0756979 0.924302 8.7238275173E+01 0.0000000000E+00 1.5136702102E+02 4.5708651164E+01 2.5234810134E+34
9.1356138636E+00 9.3503119638E-01 2.6188455262E-01 5.3901146859E-02 1.8326020820E-02 0.0722272 0.927773 7.8376166991E+01 0.0000000000E+00 1.4753623200E+02 4.1877862149E+01 2.1306765188E+34
9.4377991881E+00 1.0075015459E+00 2.4902985238E-01 5.2582088936E-02 1.6447660921E-02 0.0690297 0.93097 7.0402905160E+01 0.0000000000E+00 1.4388845219E+02 3.8230082337E+01 1.7943817737E+34
9.7080237502E+00 1.0728193400E+00 2.3673932724E-01 5.1389851750E-02 1.4677884019E-02 0.0660677 0.933932 6.3237352536E+01 0.0000000000E+00 1.4040381906E+02 3.4745449207E+01 1.5074746395E+34
9.9495553935E+00 1.1311962606E+00 2.2499266834E-01 5.0304472096E-02 1.3002081442E-02 0.0633066 0.936693 5.6806012359E+01 0.0000000000E+00 1.3706338682E+02 3.1405016964E+01 1.2635943732E+34
1.0165181869E+01 1.1829535667E+00 2.1377093608E-01 4.9307194967E-02 1.1408158544E-02 0.0607154 0.939285 5.1042288285E+01 0.0000000000E+00 1.3384935113E+02 2.8190981278E+01 1.0570564422E+34
1.0357348153E+01 1.2284935736E+00 2.0305617355E-01 4.8380618332E-02 9.8867847934E-03 0.0582674 0.941733 4.5885901500E+01 0.0000000000E+00 1.3074526647E+02 2.5086896619E+01 8.8278794713E+33
1.0528248131E+01 1.2682748513E+00 1.9283116229E-01 4.7508816419E-02 8.4316754147E-03 0.0559405 0.94406 4.1282380249E+01 0.0000000000E+00 1.2773622339E+02 2.2077853541E+01 7.3627514391E+33
1.0679885611E+01 1.3027905584E+00 1.8307926551E-01 4.6677434489E-02 7.0399280989E-03 0.0537174 0.946283 3.7182567378E+01 0.0000000000E+00 1.2480897213E+02 1.9150602281E+01 6.1351813207E+33
1.0814114097E+01 1.3325496631E+00 1.7378432757E-01 4.5873752828E-02 5.7124637489E-03 0.0515862 0.948414 3.3542101595E+01 0.0000000000E+00 1.2195199013E+02 1.6293620281E+01 5.1098975814E+33
1.0932661715E+01 1.3580609800E+00 1.6493061213E-01 4.5086720206E-02 4.4546651195E-03 0.0495414 0.950459 3.0320831900E+01 0.0000000000E+00 1.1915549779E+02 1.3497127933E+01 4.2559696623E+33
1.1037145882E+01 1.3798200309E+00 1.5650276917E-01 4.4306958405E-02 3.2774041571E-03 0.0475844 0.952416 2.7482132939E+01 0.0000000000E+00 1.1641143035E+02 1.0753060500E+01 3.5464358855E+33
1.1129081208E+01 1.3982987233E+00 1.4848582428E-01 4.3526740165E-02 2.1988947413E-03 0.0457256 0.954274 2.4992113577E+01 0.0000000000E+00 1.1371337532E+02 8.0550054706E+00 2.9579409084E+33
1.1209883274E+01 1.4139377653E+00 1.4086517001E-01 4.2739941697E-02 1.2485660439E-03 0.0439885 0.956011 2.2818757344E+01 0.0000000000E+00 1.1105647906E+02 5.3981092055E+00 2.4703817287E+33
1.1280870216E+01 1.4271416224E+00 1.3362660628E-01 4.1941977898E-02 4.7738256387E-04 0.0424194 0.957581 2.0931125668E+01 0.0000000000E+00 1.0843734877E+02 2.7789789153E+00 2.0665643709E+33
1.1343263128E+01 1.4382756673E+00 1.2675618204E-01 4.1129695457E-02 9.2207126264E-06 0.0411389 0.958861 1.9298743217E+01 0.0000000000E+00 1.0585386703E+02 1.9549718103E-01 1.7318764773E+33
1.1398185004E+01 1.4476649738E+00 1.2023995216E-01 4.0301229512E-02 0.0000000000E+00 0.0403012 0.959699 1.7891404473E+01 0.0000000000E+00 1.0330494959E+02 -1.0565836985E+02 1.4539851229E+33
1.1446655615E+01 1.4555939136E+00 1.1406311396E-01 3.9455742012E-02 0.0000000000E+00 0.0394557 0.960544 1.6679390568E+01 0.0000000000E+00 1.0079001613E+02 -1.0565836985E+02 1.2225758600E+33
1.1477240681E+01 1.4604079448E+00 1.0993119022E-01 3.8853482329E-02 0.0000000000E+00 0.0388535 0.961147 1.5931613082E+01 0.0000000000E+00 9.9048870213E+01 -1.0565836985E+02 1.0836035834E+33
1.1502154535E+01 1.4642128490E+00 1.0641452828E-01 3.8315551679E-02 0.0000000000E+00 0.0383156 0.961684 1.5332759267E+01 0.0000000000E+00 9.7526974249E+01 -1.0565836985E+02 9.7461405463E+32
1.1523460462E+01 1.4673788653E+00 1.0328583575E-01 3.7815995535E-02 0.0000000000E+00 0.037816 0.962184 1.4827505629E+01 0.0000000000E+00 9.6140200464E+01 -1.0565836985E+02 8.8451773955E+32
1.1542275975E+01 1.4701038339E+00 1.0041462758E-01 3.7339133991E-02 0.0000000000E+00 0.0373391 0.962661 1.4385468921E+01 0.0000000000E+00 9.4838970691E+01 -1.0565836985E+02 8.0741718401E+32
1.1559314221E+01 1.4725109619E+00 9.7707968831E-02 3.6872601566E-02 0.0000000000E+00 0.0368726 0.963127 1.3986764037E+01 0.0000000000E+00 9.3586064084E+01 -1.0565836985E+02 7.3966218243E+32
1.1575123368E+01 1.4746902235E+00 9.5080077275E-02 3.6403089904E-02 0.0000000000E+00 0.0364031 0.963597 1.3615543453E+01 0.0000000000E+00 9.2344144203E+01 -1.0565836985E+02 6.7861465183E+32
1.1590366542E+01 1.4767389183E+00 9.2401740988E-02 3.5907000906E-02 0.0000000000E+00 0.035907 0.964093 1.3252510977E+01 0.0000000000E+00 9.1051419696E+01 -1.0565836985E+02 6.2148656434E+32
1.1608401466E+01 1.4790905025E+00 8.8959440641E-02 3.5242076943E-02 0.0000000000E+00 0.0352421 0.964758 1.2807466849E+01 0.0000000000E+00 8.9348048036E+01 -1.0565836985E+02 5.5623546932E+32
1.1618609494E+01 1.4803832684E+00 8.6812728890E-02 3.4811139232E-02 0.0000000000E+00 0.0348111 0.965189 1.2541644099E+01 0.0000000000E+00 8.8260817775E+01 -1.0565836985E+02 5.2051599207E+32
1.1626337809E+01 1.4813415739E+00 8.5048662905E-02 3.4447289323E-02 0.0000000000E+00 0.0344473 0.965553 1.2329710491E+01 0.0000000000E+00 8.7352444997E+01 -1.0565836985E+02 4.9410931155E+32
1.1633015229E+01 1.4821540494E+00 8.3397421637E-02 3.4098528855E-02 0.0000000000E+00 0.0340985 0.965901 1.2136540186E+01 0.0000000000E+00 8.6489580136E+01 -1.0565836985E+02 4.7176985869E+32
1.1638803741E+01 1.4828456584E+00 8.1846526645E-02 3.3763574603E-02 0.0000000000E+00 0.0337636 0.966236 1.1959632521E+01 0.0000000000E+00 8.5667758579E+01 -1.0565836985E+02 4.5278968393E+32
1.1644035767E+01 1.4834597079E+00 8.0330248059E-02 3.3429013391E-02 0.0000000000E+00 0.033429 0.966571 1.2324755914E+01 -7.0964437496E+01 8.4582493443E+01 -1.0565836985E+02 4.3596628102E+32
1.1648974983E+01 1.4840289039E+00 7.8785221860E-02 3.3080740693E-02 0.0000000000E+00 0.0330807 0.966919 1.1984603032E+01 -7.0746329599E+01 8.4024232664E+01 -1.0565836985E+02 4.2039595467E+32
1.1654004098E+01 1.4845971078E+00 7.7091089229E-02 3.2690109908E-02 0.0000000000E+00 0.0326901 0.96731 1.1735336283E+01 -7.0358434646E+01 8.3387070962E+01 -1.0565836985E+02 4.0487645482E+32
1.1660909133E+01 1.4853569573E+00 7.4576088627E-02 3.2092864880E-02 0.0000000000E+00 0.0320929 0.967907 1.1480431066E+01 -6.9630061722E+01 8.2403792821E+01 -1.0565836985E+02 3.8416040279E+32
1.1666245941E+01 1.4859269793E+00 7.2516969933E-02 3.1587998499E-02 0.0000000000E+00 0.031588 0.968412 1.1318090300E+01 -6.8963284743E+01 8.1574675075E+01 -1.0565836985E+02 3.6864899909E+32
1.1672755919E+01 1.4866009626E+00 6.9939352053E-02 3.0935192459E-02 0.0000000000E+00 0.0309352 0.969065 1.1138499785E+01 -6.8085662032E+01 8.0517461850E+01 -1.0565836985E+02 3.5034219306E+32
1.1678269648E+01 1.4871531834E+00 6.7753836139E-02 3.0363015265E-02 0.0000000000E+00 0.030363 0.969637 1.0994794423E+01 -6.7323761934E+01 7.9611856389E+01 -1.0565836985E+02 3.3537083602E+32
1.1683511691E+01 1.4876624486E+00 6.5704374407E-02 2.9810431335E-02 0.0000000000E+00 0.0298104 0.97019 1.0862769181E+01 -6.6603923363E+01 7.8759992577E+01 -1.0565836985E+02 3.2158738368E+32
1.1689010011E+01 1.4881803881E+00 6.3597703545E-02 2.9225829030E-02 0.0000000000E+00 0.0292258 0.970774 1.0727928062E+01 -6.5864034645E+01 7.7885262739E+01 -1.0565836985E+02 3.0759297208E+32
1.1695046445E+01 1.4887302892E+00 6.1338506217E-02 2.8579725072E-02 0.0000000000E+00 0.0285797 0.97142 1.0583176896E+01 -6.5074588740E+01 7.6951065668E+01 -1.0565836985E+02 2.9276229180E+32
1.1703313237E+01 1.4894523457E+00 5.8327981688E-02 2.7687025350E-02 0.0000000000E+00 0.027687 0.972313 1.0388805743E+01 -6.4033147644E+01 7.5715253420E+01 -1.0565836985E+02 2.7333333626E+32
1.1711412430E+01 1.4901258428E+00 5.5457400424E-02 2.6801044694E-02 0.0000000000E+00 0.026801 0.973199 1.0200820515E+01 -6.3052845959E+01 7.4546966507E+01 -1.0565836985E+02 2.5525916642E+32
1.1719305137E+01 1.4907505982E+00 5.2722358493E-02 2.5924359871E-02 0.0000000000E+00 0.0259244 0.974076 1.0018370139E+01 -6.2128939073E+01 7.3440609245E+01 -1.0565836985E+02 2.3853701237E+32
1.1726966794E+01 1.4913278174E+00 5.0119201444E-02 2.5059663188E-02 0.0000000000E+00 0.0250597 0.97494 9.8408530275E+00 -6.1255193582E+01 7.2389346642E+01 -1.0565836985E+02 2.2312696208E+32
1.1734389630E+01 1.4918600310E+00 4.7643846883E-02 2.4209365395E-02 0.0000000000E+00 0.0242094 0.975791 9.6677654517E+00 -6.0424670488E+01 7.1385735973E+01 -1.0565836985E+02 2.0895417470E+32
1.1741579264E+01 1.4923506027E+00 4.5291619346E-02 2.3375487241E-02 0.0000000000E+00 0.0233755 0.976625 9.4986568168E+00 -5.9630428373E+01 7.0422385222E+01 -1.0565836985E+02 1.9592238525E+32
1.1748550269E+01 1.4928032570E+00 4.3057394812E-02 2.2559662004E-02 0.0000000000E+00 0.0225597 0.97744 9.3331178866E+00 -5.8866010328E+01 6.9492428247E+01 -1.0565836985E+02 1.8392666535E+32
1.1755322402E+01 1.4932217409E+00 4.0935797624E-02 2.1763174572E-02 0.0000000000E+00 0.0217632 0.978237 9.1707779931E+00 -5.8125718498E+01 6.8589796524E+01 -1.0565836985E+02 1.7286244933E+32
1.1761917827E+01 1.4936096160E+00 3.8921370214E-02 2.0987008405E-02 0.0000000000E+00 0.020987 0.979013 9.0113038998E+00 -5.7404726506E+01 6.7709330439E+01 -1.0565836985E+02 1.6263098865E+32
